!lambda    nu*dP/dnu  
! (um)   (erg s-1 H-1)
1.000E+04  5.303E-31  
9.908E+03  5.497E-31  
9.817E+03  5.697E-31  
9.727E+03  5.905E-31  
9.638E+03  6.120E-31  
9.550E+03  6.344E-31  
9.462E+03  6.575E-31  
9.376E+03  6.815E-31  
9.290E+03  7.063E-31  
9.204E+03  7.321E-31  
9.120E+03  7.588E-31  
9.036E+03  7.865E-31  
8.954E+03  8.151E-31  
8.872E+03  8.446E-31  
8.790E+03  8.753E-31  
8.710E+03  9.071E-31  
8.630E+03  9.400E-31  
8.551E+03  9.742E-31  
8.472E+03  1.010E-30  
8.395E+03  1.046E-30  
8.318E+03  1.084E-30  
8.241E+03  1.124E-30  
8.166E+03  1.165E-30  
8.091E+03  1.207E-30  
8.017E+03  1.252E-30  
7.943E+03  1.297E-30  
7.870E+03  1.345E-30  
7.798E+03  1.394E-30  
7.727E+03  1.445E-30  
7.656E+03  1.498E-30  
7.586E+03  1.553E-30  
7.516E+03  1.610E-30  
7.447E+03  1.669E-30  
7.379E+03  1.730E-30  
7.311E+03  1.793E-30  
7.244E+03  1.859E-30  
7.178E+03  1.928E-30  
7.112E+03  1.999E-30  
7.047E+03  2.072E-30  
6.982E+03  2.148E-30  
6.918E+03  2.227E-30  
6.855E+03  2.309E-30  
6.792E+03  2.394E-30  
6.730E+03  2.482E-30  
6.668E+03  2.574E-30  
6.607E+03  2.669E-30  
6.546E+03  2.767E-30  
6.486E+03  2.870E-30  
6.427E+03  2.976E-30  
6.368E+03  3.086E-30  
6.310E+03  3.200E-30  
6.252E+03  3.318E-30  
6.194E+03  3.441E-30  
6.138E+03  3.569E-30  
6.081E+03  3.701E-30  
6.026E+03  3.839E-30  
5.970E+03  3.981E-30  
5.916E+03  4.129E-30  
5.861E+03  4.283E-30  
5.808E+03  4.442E-30  
5.754E+03  4.607E-30  
5.702E+03  4.779E-30  
5.649E+03  4.957E-30  
5.598E+03  5.142E-30  
5.546E+03  5.334E-30  
5.495E+03  5.533E-30  
5.445E+03  5.740E-30  
5.395E+03  5.954E-30  
5.346E+03  6.177E-30  
5.297E+03  6.408E-30  
5.248E+03  6.648E-30  
5.200E+03  6.897E-30  
5.152E+03  7.155E-30  
5.105E+03  7.423E-30  
5.058E+03  7.702E-30  
5.012E+03  7.991E-30  
4.966E+03  8.291E-30  
4.920E+03  8.602E-30  
4.875E+03  8.925E-30  
4.831E+03  9.261E-30  
4.786E+03  9.609E-30  
4.742E+03  9.971E-30  
4.699E+03  1.035E-29  
4.656E+03  1.074E-29  
4.613E+03  1.114E-29  
4.571E+03  1.156E-29  
4.529E+03  1.200E-29  
4.487E+03  1.245E-29  
4.446E+03  1.292E-29  
4.406E+03  1.341E-29  
4.365E+03  1.392E-29  
4.325E+03  1.445E-29  
4.285E+03  1.499E-29  
4.246E+03  1.556E-29  
4.207E+03  1.615E-29  
4.169E+03  1.676E-29  
4.130E+03  1.740E-29  
4.093E+03  1.806E-29  
4.055E+03  1.875E-29  
4.018E+03  1.946E-29  
3.981E+03  2.020E-29  
3.945E+03  2.097E-29  
3.908E+03  2.177E-29  
3.873E+03  2.260E-29  
3.837E+03  2.346E-29  
3.802E+03  2.435E-29  
3.767E+03  2.528E-29  
3.733E+03  2.625E-29  
3.698E+03  2.725E-29  
3.664E+03  2.829E-29  
3.631E+03  2.938E-29  
3.597E+03  3.050E-29  
3.565E+03  3.167E-29  
3.532E+03  3.288E-29  
3.499E+03  3.414E-29  
3.467E+03  3.546E-29  
3.436E+03  3.682E-29  
3.404E+03  3.823E-29  
3.373E+03  3.970E-29  
3.342E+03  4.123E-29  
3.311E+03  4.282E-29  
3.281E+03  4.447E-29  
3.251E+03  4.618E-29  
3.221E+03  4.797E-29  
3.192E+03  4.982E-29  
3.162E+03  5.174E-29  
3.133E+03  5.374E-29  
3.105E+03  5.582E-29  
3.076E+03  5.798E-29  
3.048E+03  6.022E-29  
3.020E+03  6.256E-29  
2.992E+03  6.498E-29  
2.965E+03  6.749E-29  
2.938E+03  7.010E-29  
2.911E+03  7.281E-29  
2.884E+03  7.563E-29  
2.858E+03  7.856E-29  
2.831E+03  8.161E-29  
2.805E+03  8.477E-29  
2.780E+03  8.806E-29  
2.754E+03  9.148E-29  
2.729E+03  9.504E-29  
2.704E+03  9.874E-29  
2.679E+03  1.026E-28  
2.655E+03  1.066E-28  
2.630E+03  1.107E-28  
2.606E+03  1.150E-28  
2.582E+03  1.195E-28  
2.559E+03  1.242E-28  
2.535E+03  1.290E-28  
2.512E+03  1.341E-28  
2.489E+03  1.393E-28  
2.466E+03  1.448E-28  
2.443E+03  1.504E-28  
2.421E+03  1.563E-28  
2.399E+03  1.624E-28  
2.377E+03  1.688E-28  
2.355E+03  1.754E-28  
2.333E+03  1.823E-28  
2.312E+03  1.894E-28  
2.291E+03  1.969E-28  
2.270E+03  2.046E-28  
2.249E+03  2.126E-28  
2.228E+03  2.210E-28  
2.208E+03  2.297E-28  
2.188E+03  2.387E-28  
2.168E+03  2.481E-28  
2.148E+03  2.578E-28  
2.128E+03  2.680E-28  
2.109E+03  2.785E-28  
2.089E+03  2.895E-28  
2.070E+03  3.009E-28  
2.051E+03  3.127E-28  
2.032E+03  3.250E-28  
2.014E+03  3.378E-28  
1.995E+03  3.512E-28  
1.977E+03  3.650E-28  
1.959E+03  3.794E-28  
1.941E+03  3.943E-28  
1.923E+03  4.099E-28  
1.905E+03  4.260E-28  
1.888E+03  4.428E-28  
1.871E+03  4.603E-28  
1.854E+03  4.785E-28  
1.837E+03  4.973E-28  
1.820E+03  5.170E-28  
1.803E+03  5.374E-28  
1.786E+03  5.586E-28  
1.770E+03  5.807E-28  
1.754E+03  6.036E-28  
1.738E+03  6.274E-28  
1.722E+03  6.522E-28  
1.706E+03  6.780E-28  
1.690E+03  7.047E-28  
1.675E+03  7.326E-28  
1.660E+03  7.615E-28  
1.644E+03  7.916E-28  
1.629E+03  8.228E-28  
1.614E+03  8.553E-28  
1.600E+03  8.891E-28  
1.585E+03  9.242E-28  
1.570E+03  9.607E-28  
1.556E+03  9.986E-28  
1.542E+03  1.038E-27  
1.528E+03  1.079E-27  
1.514E+03  1.122E-27  
1.500E+03  1.166E-27  
1.486E+03  1.212E-27  
1.472E+03  1.260E-27  
1.459E+03  1.309E-27  
1.445E+03  1.361E-27  
1.432E+03  1.415E-27  
1.419E+03  1.471E-27  
1.406E+03  1.529E-27  
1.393E+03  1.589E-27  
1.380E+03  1.651E-27  
1.368E+03  1.717E-27  
1.355E+03  1.784E-27  
1.343E+03  1.854E-27  
1.330E+03  1.928E-27  
1.318E+03  2.003E-27  
1.306E+03  2.082E-27  
1.294E+03  2.164E-27  
1.282E+03  2.249E-27  
1.271E+03  2.338E-27  
1.259E+03  2.429E-27  
1.247E+03  2.525E-27  
1.236E+03  2.624E-27  
1.225E+03  2.727E-27  
1.213E+03  2.834E-27  
1.202E+03  2.945E-27  
1.191E+03  3.060E-27  
1.180E+03  3.180E-27  
1.169E+03  3.304E-27  
1.159E+03  3.433E-27  
1.148E+03  3.568E-27  
1.138E+03  3.707E-27  
1.127E+03  3.852E-27  
1.117E+03  4.002E-27  
1.107E+03  4.158E-27  
1.096E+03  4.320E-27  
1.086E+03  4.488E-27  
1.076E+03  4.662E-27  
1.067E+03  4.843E-27  
1.057E+03  5.031E-27  
1.047E+03  5.227E-27  
1.038E+03  5.429E-27  
1.028E+03  5.639E-27  
1.019E+03  5.857E-27  
1.009E+03  6.084E-27  
1.000E+03  6.319E-27  
9.908E+02  6.563E-27  
9.817E+02  6.816E-27  
9.727E+02  7.079E-27  
9.638E+02  7.352E-27  
9.550E+02  7.635E-27  
9.462E+02  7.929E-27  
9.376E+02  8.234E-27  
9.290E+02  8.550E-27  
9.204E+02  8.878E-27  
9.120E+02  9.218E-27  
9.036E+02  9.571E-27  
8.954E+02  9.936E-27  
8.872E+02  1.032E-26  
8.790E+02  1.071E-26  
8.710E+02  1.112E-26  
8.630E+02  1.154E-26  
8.551E+02  1.198E-26  
8.472E+02  1.243E-26  
8.395E+02  1.290E-26  
8.318E+02  1.339E-26  
8.241E+02  1.389E-26  
8.166E+02  1.442E-26  
8.091E+02  1.496E-26  
8.017E+02  1.552E-26  
7.943E+02  1.610E-26  
7.870E+02  1.671E-26  
7.798E+02  1.733E-26  
7.727E+02  1.798E-26  
7.656E+02  1.865E-26  
7.586E+02  1.934E-26  
7.516E+02  2.006E-26  
7.447E+02  2.081E-26  
7.379E+02  2.158E-26  
7.311E+02  2.238E-26  
7.244E+02  2.322E-26  
7.178E+02  2.408E-26  
7.112E+02  2.497E-26  
7.047E+02  2.589E-26  
6.982E+02  2.685E-26  
6.918E+02  2.784E-26  
6.855E+02  2.887E-26  
6.792E+02  2.993E-26  
6.730E+02  3.103E-26  
6.668E+02  3.217E-26  
6.607E+02  3.335E-26  
6.546E+02  3.457E-26  
6.486E+02  3.584E-26  
6.427E+02  3.715E-26  
6.368E+02  3.851E-26  
6.310E+02  3.992E-26  
6.252E+02  4.138E-26  
6.194E+02  4.290E-26  
6.138E+02  4.446E-26  
6.081E+02  4.608E-26  
6.026E+02  4.776E-26  
5.970E+02  4.950E-26  
5.916E+02  5.129E-26  
5.861E+02  5.315E-26  
5.808E+02  5.508E-26  
5.754E+02  5.707E-26  
5.702E+02  5.914E-26  
5.649E+02  6.127E-26  
5.598E+02  6.348E-26  
5.546E+02  6.577E-26  
5.495E+02  6.813E-26  
5.445E+02  7.058E-26  
5.395E+02  7.311E-26  
5.346E+02  7.573E-26  
5.297E+02  7.844E-26  
5.248E+02  8.125E-26  
5.200E+02  8.414E-26  
5.152E+02  8.714E-26  
5.105E+02  9.024E-26  
5.058E+02  9.344E-26  
5.012E+02  9.675E-26  
4.966E+02  1.002E-25  
4.920E+02  1.037E-25  
4.875E+02  1.074E-25  
4.831E+02  1.111E-25  
4.786E+02  1.151E-25  
4.742E+02  1.191E-25  
4.699E+02  1.232E-25  
4.656E+02  1.276E-25  
4.613E+02  1.320E-25  
4.571E+02  1.366E-25  
4.529E+02  1.413E-25  
4.487E+02  1.462E-25  
4.446E+02  1.513E-25  
4.406E+02  1.565E-25  
4.365E+02  1.619E-25  
4.325E+02  1.674E-25  
4.285E+02  1.731E-25  
4.246E+02  1.791E-25  
4.207E+02  1.852E-25  
4.169E+02  1.915E-25  
4.130E+02  1.979E-25  
4.093E+02  2.046E-25  
4.055E+02  2.115E-25  
4.018E+02  2.187E-25  
3.981E+02  2.260E-25  
3.945E+02  2.336E-25  
3.908E+02  2.414E-25  
3.873E+02  2.494E-25  
3.837E+02  2.577E-25  
3.802E+02  2.662E-25  
3.767E+02  2.750E-25  
3.733E+02  2.840E-25  
3.698E+02  2.933E-25  
3.664E+02  3.029E-25  
3.631E+02  3.128E-25  
3.597E+02  3.229E-25  
3.565E+02  3.334E-25  
3.532E+02  3.441E-25  
3.499E+02  3.552E-25  
3.467E+02  3.665E-25  
3.436E+02  3.782E-25  
3.404E+02  3.902E-25  
3.373E+02  4.026E-25  
3.342E+02  4.153E-25  
3.311E+02  4.283E-25  
3.281E+02  4.417E-25  
3.251E+02  4.554E-25  
3.221E+02  4.695E-25  
3.192E+02  4.840E-25  
3.162E+02  4.988E-25  
3.133E+02  5.141E-25  
3.105E+02  5.297E-25  
3.076E+02  5.457E-25  
3.048E+02  5.622E-25  
3.020E+02  5.790E-25  
2.992E+02  5.963E-25  
2.965E+02  6.139E-25  
2.938E+02  6.320E-25  
2.911E+02  6.505E-25  
2.884E+02  6.695E-25  
2.858E+02  6.889E-25  
2.831E+02  7.088E-25  
2.805E+02  7.291E-25  
2.780E+02  7.499E-25  
2.754E+02  7.711E-25  
2.729E+02  7.929E-25  
2.704E+02  8.151E-25  
2.679E+02  8.379E-25  
2.655E+02  8.611E-25  
2.630E+02  8.848E-25  
2.606E+02  9.091E-25  
2.582E+02  9.338E-25  
2.559E+02  9.589E-25  
2.535E+02  9.843E-25  
2.512E+02  1.010E-24  
2.489E+02  1.036E-24  
2.466E+02  1.062E-24  
2.443E+02  1.087E-24  
2.421E+02  1.114E-24  
2.399E+02  1.140E-24  
2.377E+02  1.166E-24  
2.355E+02  1.192E-24  
2.333E+02  1.219E-24  
2.312E+02  1.246E-24  
2.291E+02  1.274E-24  
2.270E+02  1.301E-24  
2.249E+02  1.329E-24  
2.228E+02  1.357E-24  
2.208E+02  1.386E-24  
2.188E+02  1.415E-24  
2.168E+02  1.444E-24  
2.148E+02  1.473E-24  
2.128E+02  1.503E-24  
2.109E+02  1.532E-24  
2.089E+02  1.562E-24  
2.070E+02  1.592E-24  
2.051E+02  1.622E-24  
2.032E+02  1.653E-24  
2.014E+02  1.683E-24  
1.995E+02  1.714E-24  
1.977E+02  1.745E-24  
1.959E+02  1.776E-24  
1.941E+02  1.807E-24  
1.923E+02  1.838E-24  
1.905E+02  1.869E-24  
1.888E+02  1.900E-24  
1.871E+02  1.931E-24  
1.854E+02  1.963E-24  
1.837E+02  1.994E-24  
1.820E+02  2.025E-24  
1.803E+02  2.056E-24  
1.786E+02  2.088E-24  
1.770E+02  2.119E-24  
1.754E+02  2.150E-24  
1.738E+02  2.182E-24  
1.722E+02  2.213E-24  
1.706E+02  2.244E-24  
1.690E+02  2.276E-24  
1.675E+02  2.307E-24  
1.660E+02  2.338E-24  
1.644E+02  2.370E-24  
1.629E+02  2.402E-24  
1.614E+02  2.433E-24  
1.600E+02  2.465E-24  
1.585E+02  2.497E-24  
1.570E+02  2.529E-24  
1.556E+02  2.561E-24  
1.542E+02  2.594E-24  
1.528E+02  2.627E-24  
1.514E+02  2.660E-24  
1.500E+02  2.694E-24  
1.486E+02  2.727E-24  
1.472E+02  2.759E-24  
1.459E+02  2.791E-24  
1.445E+02  2.821E-24  
1.432E+02  2.848E-24  
1.419E+02  2.872E-24  
1.406E+02  2.891E-24  
1.393E+02  2.905E-24  
1.380E+02  2.912E-24  
1.368E+02  2.914E-24  
1.355E+02  2.911E-24  
1.343E+02  2.904E-24  
1.330E+02  2.895E-24  
1.318E+02  2.885E-24  
1.306E+02  2.874E-24  
1.294E+02  2.862E-24  
1.282E+02  2.851E-24  
1.271E+02  2.839E-24  
1.259E+02  2.827E-24  
1.247E+02  2.816E-24  
1.236E+02  2.805E-24  
1.225E+02  2.794E-24  
1.213E+02  2.783E-24  
1.202E+02  2.771E-24  
1.191E+02  2.760E-24  
1.180E+02  2.748E-24  
1.169E+02  2.736E-24  
1.159E+02  2.723E-24  
1.148E+02  2.709E-24  
1.138E+02  2.696E-24  
1.127E+02  2.682E-24  
1.117E+02  2.667E-24  
1.107E+02  2.653E-24  
1.096E+02  2.637E-24  
1.086E+02  2.621E-24  
1.076E+02  2.605E-24  
1.067E+02  2.587E-24  
1.057E+02  2.570E-24  
1.047E+02  2.551E-24  
1.038E+02  2.532E-24  
1.028E+02  2.512E-24  
1.019E+02  2.491E-24  
1.009E+02  2.470E-24  
1.000E+02  2.448E-24  
9.908E+01  2.424E-24  
9.817E+01  2.401E-24  
9.727E+01  2.376E-24  
9.638E+01  2.351E-24  
9.550E+01  2.326E-24  
9.462E+01  2.300E-24  
9.376E+01  2.273E-24  
9.290E+01  2.246E-24  
9.204E+01  2.218E-24  
9.120E+01  2.190E-24  
9.036E+01  2.161E-24  
8.954E+01  2.132E-24  
8.872E+01  2.102E-24  
8.790E+01  2.072E-24  
8.710E+01  2.042E-24  
8.630E+01  2.011E-24  
8.551E+01  1.980E-24  
8.472E+01  1.948E-24  
8.395E+01  1.917E-24  
8.318E+01  1.885E-24  
8.241E+01  1.853E-24  
8.166E+01  1.822E-24  
8.091E+01  1.790E-24  
8.017E+01  1.758E-24  
7.943E+01  1.726E-24  
7.870E+01  1.694E-24  
7.798E+01  1.661E-24  
7.727E+01  1.629E-24  
7.656E+01  1.597E-24  
7.586E+01  1.565E-24  
7.516E+01  1.533E-24  
7.447E+01  1.502E-24  
7.379E+01  1.469E-24  
7.311E+01  1.438E-24  
7.244E+01  1.406E-24  
7.178E+01  1.375E-24  
7.112E+01  1.344E-24  
7.047E+01  1.314E-24  
6.982E+01  1.284E-24  
6.918E+01  1.255E-24  
6.855E+01  1.226E-24  
6.792E+01  1.197E-24  
6.730E+01  1.168E-24  
6.668E+01  1.140E-24  
6.607E+01  1.113E-24  
6.546E+01  1.085E-24  
6.486E+01  1.059E-24  
6.427E+01  1.033E-24  
6.368E+01  1.007E-24  
6.310E+01  9.819E-25  
6.252E+01  9.574E-25  
6.194E+01  9.336E-25  
6.138E+01  9.102E-25  
6.081E+01  8.874E-25  
6.026E+01  8.650E-25  
5.970E+01  8.431E-25  
5.916E+01  8.220E-25  
5.861E+01  8.012E-25  
5.808E+01  7.811E-25  
5.754E+01  7.617E-25  
5.702E+01  7.429E-25  
5.649E+01  7.246E-25  
5.598E+01  7.070E-25  
5.546E+01  6.898E-25  
5.495E+01  6.733E-25  
5.445E+01  6.574E-25  
5.395E+01  6.420E-25  
5.346E+01  6.272E-25  
5.297E+01  6.127E-25  
5.248E+01  5.990E-25  
5.200E+01  5.856E-25  
5.152E+01  5.730E-25  
5.105E+01  5.604E-25  
5.058E+01  5.487E-25  
5.012E+01  5.373E-25  
4.966E+01  5.266E-25  
4.920E+01  5.164E-25  
4.875E+01  5.064E-25  
4.831E+01  4.970E-25  
4.786E+01  4.881E-25  
4.742E+01  4.796E-25  
4.699E+01  4.714E-25  
4.656E+01  4.635E-25  
4.613E+01  4.561E-25  
4.571E+01  4.490E-25  
4.529E+01  4.422E-25  
4.487E+01  4.359E-25  
4.446E+01  4.297E-25  
4.406E+01  4.237E-25  
4.365E+01  4.181E-25  
4.325E+01  4.129E-25  
4.285E+01  4.077E-25  
4.246E+01  4.027E-25  
4.207E+01  3.980E-25  
4.169E+01  3.936E-25  
4.130E+01  3.893E-25  
4.093E+01  3.852E-25  
4.055E+01  3.812E-25  
4.018E+01  3.774E-25  
3.981E+01  3.737E-25  
3.945E+01  3.702E-25  
3.908E+01  3.668E-25  
3.873E+01  3.634E-25  
3.837E+01  3.601E-25  
3.802E+01  3.568E-25  
3.767E+01  3.535E-25  
3.733E+01  3.503E-25  
3.698E+01  3.472E-25  
3.664E+01  3.442E-25  
3.631E+01  3.411E-25  
3.597E+01  3.378E-25  
3.565E+01  3.349E-25  
3.532E+01  3.319E-25  
3.499E+01  3.289E-25  
3.467E+01  3.258E-25  
3.436E+01  3.229E-25  
3.404E+01  3.200E-25  
3.373E+01  3.170E-25  
3.342E+01  3.141E-25  
3.311E+01  3.113E-25  
3.281E+01  3.086E-25  
3.251E+01  3.057E-25  
3.221E+01  3.030E-25  
3.192E+01  3.003E-25  
3.162E+01  2.976E-25  
3.133E+01  2.951E-25  
3.105E+01  2.924E-25  
3.076E+01  2.900E-25  
3.048E+01  2.877E-25  
3.020E+01  2.854E-25  
2.992E+01  2.833E-25  
2.965E+01  2.811E-25  
2.938E+01  2.792E-25  
2.911E+01  2.773E-25  
2.884E+01  2.755E-25  
2.858E+01  2.739E-25  
2.831E+01  2.724E-25  
2.805E+01  2.711E-25  
2.780E+01  2.699E-25  
2.754E+01  2.689E-25  
2.729E+01  2.677E-25  
2.704E+01  2.670E-25  
2.679E+01  2.664E-25  
2.655E+01  2.658E-25  
2.630E+01  2.654E-25  
2.606E+01  2.650E-25  
2.582E+01  2.649E-25  
2.559E+01  2.649E-25  
2.535E+01  2.651E-25  
2.512E+01  2.654E-25  
2.489E+01  2.658E-25  
2.466E+01  2.663E-25  
2.443E+01  2.669E-25  
2.421E+01  2.677E-25  
2.399E+01  2.686E-25  
2.377E+01  2.696E-25  
2.355E+01  2.708E-25  
2.333E+01  2.721E-25  
2.312E+01  2.736E-25  
2.291E+01  2.750E-25  
2.270E+01  2.767E-25  
2.249E+01  2.786E-25  
2.228E+01  2.806E-25  
2.208E+01  2.827E-25  
2.188E+01  2.848E-25  
2.168E+01  2.870E-25  
2.148E+01  2.895E-25  
2.128E+01  2.920E-25  
2.109E+01  2.947E-25  
2.089E+01  2.975E-25  
2.070E+01  3.005E-25  
2.051E+01  3.036E-25  
2.032E+01  3.069E-25  
2.014E+01  3.105E-25  
1.995E+01  3.144E-25  
1.977E+01  3.187E-25  
1.959E+01  3.235E-25  
1.941E+01  3.295E-25  
1.923E+01  3.385E-25  
1.905E+01  3.569E-25  
1.888E+01  3.728E-25  
1.871E+01  3.599E-25  
1.854E+01  3.588E-25  
1.837E+01  3.646E-25  
1.820E+01  3.753E-25  
1.803E+01  3.942E-25  
1.786E+01  4.242E-25  
1.770E+01  4.329E-25  
1.754E+01  4.640E-25  
1.738E+01  5.326E-25  
1.722E+01  5.299E-25  
1.706E+01  5.380E-25  
1.690E+01  5.294E-25  
1.675E+01  5.108E-25  
1.660E+01  5.229E-25  
1.644E+01  6.084E-25  
1.629E+01  4.723E-25  
1.614E+01  4.180E-25  
1.600E+01  4.008E-25  
1.585E+01  3.906E-25  
1.570E+01  3.785E-25  
1.556E+01  3.715E-25  
1.542E+01  3.673E-25  
1.528E+01  3.646E-25  
1.514E+01  3.630E-25  
1.500E+01  3.625E-25  
1.486E+01  3.632E-25  
1.472E+01  3.657E-25  
1.459E+01  3.715E-25  
1.445E+01  3.840E-25  
1.432E+01  4.114E-25  
1.419E+01  4.428E-25  
1.406E+01  4.296E-25  
1.393E+01  4.255E-25  
1.380E+01  4.478E-25  
1.368E+01  4.957E-25  
1.355E+01  5.564E-25  
1.343E+01  5.753E-25  
1.330E+01  5.476E-25  
1.318E+01  5.359E-25  
1.306E+01  5.661E-25  
1.294E+01  6.492E-25  
1.282E+01  8.001E-25  
1.271E+01  9.920E-25  
1.259E+01  1.059E-24  
1.247E+01  9.306E-25  
1.236E+01  7.967E-25  
1.225E+01  7.531E-25  
1.213E+01  7.919E-25  
1.202E+01  8.467E-25  
1.191E+01  8.193E-25  
1.180E+01  7.453E-25  
1.169E+01  7.279E-25  
1.159E+01  8.264E-25  
1.148E+01  1.116E-24  
1.138E+01  1.603E-24  
1.127E+01  2.137E-24  
1.117E+01  1.513E-24  
1.107E+01  7.831E-25  
1.096E+01  5.408E-25  
1.086E+01  4.294E-25  
1.076E+01  3.708E-25  
1.067E+01  3.365E-25  
1.057E+01  3.068E-25  
1.047E+01  2.872E-25  
1.038E+01  2.743E-25  
1.028E+01  2.653E-25  
1.019E+01  2.589E-25  
1.009E+01  2.547E-25  
1.000E+01  2.521E-25  
9.908E+00  2.512E-25  
9.817E+00  2.519E-25  
9.727E+00  2.540E-25  
9.638E+00  2.577E-25  
9.550E+00  2.631E-25  
9.462E+00  2.704E-25  
9.376E+00  2.801E-25  
9.290E+00  2.929E-25  
9.204E+00  3.103E-25  
9.120E+00  3.344E-25  
9.036E+00  3.690E-25  
8.954E+00  4.212E-25  
8.872E+00  5.038E-25  
8.790E+00  6.393E-25  
8.710E+00  8.465E-25  
8.630E+00  1.041E-24  
8.551E+00  1.019E-24  
8.472E+00  8.867E-25  
8.395E+00  8.194E-25  
8.318E+00  8.161E-25  
8.241E+00  8.523E-25  
8.166E+00  9.424E-25  
8.091E+00  1.114E-24  
8.017E+00  1.386E-24  
7.943E+00  1.744E-24  
7.870E+00  2.058E-24  
7.798E+00  2.172E-24  
7.727E+00  2.188E-24  
7.656E+00  2.260E-24  
7.586E+00  2.203E-24  
7.516E+00  1.856E-24  
7.447E+00  1.464E-24  
7.379E+00  1.177E-24  
7.311E+00  9.772E-25  
7.244E+00  8.315E-25  
7.178E+00  7.202E-25  
7.112E+00  6.347E-25  
7.047E+00  5.714E-25  
6.982E+00  5.285E-25  
6.918E+00  5.051E-25  
6.855E+00  4.996E-25  
6.792E+00  5.067E-25  
6.730E+00  5.141E-25  
6.668E+00  5.072E-25  
6.607E+00  4.860E-25  
6.546E+00  4.687E-25  
6.486E+00  4.784E-25  
6.427E+00  5.413E-25  
6.368E+00  7.065E-25  
6.310E+00  1.077E-24  
6.252E+00  1.676E-24  
6.194E+00  1.698E-24  
6.138E+00  1.058E-24  
6.081E+00  6.306E-25  
6.026E+00  4.202E-25  
5.970E+00  3.135E-25  
5.916E+00  2.578E-25  
5.861E+00  2.331E-25  
5.808E+00  2.352E-25  
5.754E+00  2.640E-25  
5.702E+00  2.844E-25  
5.649E+00  2.398E-25  
5.598E+00  1.826E-25  
5.546E+00  1.474E-25  
5.495E+00  1.287E-25  
5.445E+00  1.206E-25  
5.395E+00  1.219E-25  
5.346E+00  1.352E-25  
5.297E+00  1.570E-25  
5.248E+00  1.535E-25  
5.200E+00  1.218E-25  
5.152E+00  9.712E-26  
5.105E+00  8.282E-26  
5.058E+00  7.421E-26  
5.012E+00  6.854E-26  
4.966E+00  6.447E-26  
4.920E+00  6.136E-26  
4.875E+00  5.887E-26  
4.831E+00  5.681E-26  
4.786E+00  5.506E-26  
4.742E+00  5.354E-26  
4.699E+00  5.221E-26  
4.656E+00  5.103E-26  
4.613E+00  4.997E-26  
4.571E+00  4.902E-26  
4.529E+00  4.815E-26  
4.487E+00  4.736E-26  
4.446E+00  4.664E-26  
4.406E+00  4.598E-26  
4.365E+00  4.537E-26  
4.325E+00  4.482E-26  
4.285E+00  4.431E-26  
4.246E+00  4.384E-26  
4.207E+00  4.342E-26  
4.169E+00  4.303E-26  
4.130E+00  4.269E-26  
4.093E+00  4.238E-26  
4.055E+00  4.211E-26  
4.018E+00  4.187E-26  
3.981E+00  4.169E-26  
3.945E+00  4.155E-26  
3.908E+00  4.146E-26  
3.873E+00  4.144E-26  
3.837E+00  4.149E-26  
3.802E+00  4.162E-26  
3.767E+00  4.187E-26  
3.733E+00  4.225E-26  
3.698E+00  4.280E-26  
3.664E+00  4.359E-26  
3.631E+00  4.470E-26  
3.597E+00  4.627E-26  
3.565E+00  4.852E-26  
3.532E+00  5.184E-26  
3.499E+00  5.691E-26  
3.467E+00  6.510E-26  
3.436E+00  7.946E-26  
